 % the field is uss
 %psi, R, x, z, re(u), im(u), abs(u), re(w), im(w), abs(w)
  0.634349E+002  0.223607E+001  0.100000E+001  0.000000E+000  0.321478E-002  0.105525E-002  0.338354E-002 -0.160739E-002 -0.527625E-003  0.169177E-002
  0.611892E+002  0.228254E+001  0.110000E+001  0.000000E+000 -0.168189E-003  0.239352E-002  0.239942E-002  0.925039E-004 -0.131644E-002  0.131968E-002
  0.590362E+002  0.233238E+001  0.120000E+001  0.000000E+000 -0.231325E-002 -0.403840E-002  0.465401E-002  0.138795E-002  0.242304E-002  0.279240E-002
  0.569761E+002  0.238537E+001  0.130000E+001  0.000000E+000  0.438981E-002 -0.586963E-002  0.732959E-002 -0.285337E-002  0.381526E-002  0.476424E-002
  0.550080E+002  0.244131E+001  0.140000E+001  0.000000E+000  0.788856E-002  0.357000E-002  0.865877E-002 -0.552199E-002 -0.249900E-002  0.606114E-002
  0.531301E+002  0.250000E+001  0.150000E+001  0.000000E+000 -0.344658E-002  0.917565E-002  0.980160E-002  0.258494E-002 -0.688174E-002  0.735120E-002
  0.513402E+002  0.256125E+001  0.160000E+001  0.000000E+000 -0.109714E-001 -0.470086E-002  0.119360E-001  0.877710E-002  0.376069E-002  0.954883E-002
  0.496355E+002  0.262488E+001  0.170000E+001  0.000000E+000  0.105575E-001 -0.175154E-001  0.204512E-001 -0.897388E-002  0.148881E-001  0.173835E-001
  0.480128E+002  0.269072E+001  0.180000E+001  0.000000E+000  0.241546E-001 -0.198364E-002  0.242359E-001 -0.217391E-001  0.178528E-002  0.218123E-001
  0.464688E+002  0.275862E+001  0.190000E+001  0.000000E+000  0.349207E-002  0.224092E-001  0.226796E-001 -0.331747E-002 -0.212887E-001  0.215457E-001
  0.450000E+002  0.282843E+001  0.200000E+001  0.000000E+000 -0.212731E-001  0.470361E-003  0.212783E-001  0.212731E-001 -0.470361E-003  0.212783E-001
  0.436028E+002  0.290000E+001  0.210000E+001  0.000000E+000  0.534738E-002 -0.192857E-001  0.200133E-001 -0.561475E-002  0.202500E-001  0.210140E-001
  0.422737E+002  0.297321E+001  0.220000E+001  0.000000E+000  0.144921E-001  0.120790E-001  0.188659E-001 -0.159413E-001 -0.132869E-001  0.207525E-001
  0.410091E+002  0.304795E+001  0.230000E+001  0.000000E+000 -0.167836E-001  0.598713E-002  0.178196E-001  0.193012E-001 -0.688520E-002  0.204925E-001
  0.398056E+002  0.312410E+001  0.240000E+001  0.000000E+000  0.468203E-002 -0.161976E-001  0.168607E-001 -0.561844E-002  0.194371E-001  0.202329E-001
  0.386598E+002  0.320156E+001  0.250000E+001  0.000000E+000  0.887549E-002  0.132863E-001  0.159781E-001 -0.110944E-001 -0.166079E-001  0.199727E-001
  0.375686E+002  0.328024E+001  0.260000E+001  0.000000E+000 -0.149263E-001 -0.266690E-002  0.151626E-001  0.194041E-001  0.346696E-002  0.197114E-001
  0.365289E+002  0.336006E+001  0.270000E+001  0.000000E+000  0.121152E-001 -0.779563E-002  0.144066E-001 -0.163555E-001  0.105241E-001  0.194489E-001
  0.355377E+002  0.344093E+001  0.280000E+001  0.000000E+000 -0.404880E-002  0.130918E-001  0.137036E-001  0.566832E-002 -0.183286E-001  0.191850E-001
  0.345923E+002  0.352278E+001  0.290000E+001  0.000000E+000 -0.454026E-002 -0.122330E-001  0.130484E-001  0.658338E-002  0.177378E-001  0.189201E-001
  0.336901E+002  0.360555E+001  0.300000E+001  0.000000E+000  0.102699E-001  0.701348E-002  0.124363E-001 -0.154049E-001 -0.105202E-001  0.186544E-001
  0.328285E+002  0.368917E+001  0.310000E+001  0.000000E+000 -0.118614E-001 -0.214471E-003  0.118634E-001  0.183852E-001  0.332431E-003  0.183882E-001
  0.320054E+002  0.377359E+001  0.320000E+001  0.000000E+000  0.976550E-002 -0.573742E-002  0.113262E-001 -0.156248E-001  0.917987E-002  0.181219E-001
  0.312184E+002  0.385876E+001  0.330000E+001  0.000000E+000 -0.537042E-002  0.939524E-002  0.108218E-001  0.886119E-002 -0.155021E-001  0.178560E-001
  0.304655E+002  0.394462E+001  0.340000E+001  0.000000E+000  0.263040E-003 -0.103442E-001  0.103475E-001 -0.447167E-003  0.175851E-001  0.175908E-001
  0.297449E+002  0.403113E+001  0.350000E+001  0.000000E+000  0.425440E-002  0.894035E-002  0.990100E-002 -0.744520E-002 -0.156456E-001  0.173267E-001
  0.290546E+002  0.411825E+001  0.360000E+001  0.000000E+000 -0.737488E-002 -0.595677E-002  0.948008E-002  0.132748E-001  0.107222E-001  0.170641E-001
  0.283930E+002  0.420595E+001  0.370000E+001  0.000000E+000  0.879406E-002  0.227229E-002  0.908289E-002 -0.162690E-001 -0.420373E-002  0.168033E-001
  0.277585E+002  0.429418E+001  0.380000E+001  0.000000E+000 -0.860388E-002  0.134072E-002  0.870771E-002  0.163474E-001 -0.254737E-002  0.165447E-001
  0.271497E+002  0.438292E+001  0.390000E+001  0.000000E+000  0.714602E-002 -0.432516E-002  0.835300E-002 -0.139347E-001  0.843407E-002  0.162884E-001
  0.265651E+002  0.447214E+001  0.400000E+001  0.000000E+000 -0.487332E-002  0.636620E-002  0.801734E-002  0.974665E-002 -0.127324E-001  0.160347E-001
  0.260033E+002  0.456180E+001  0.410000E+001  0.000000E+000  0.224271E-002 -0.736557E-002  0.769944E-002 -0.459756E-002  0.150994E-001  0.157839E-001
  0.254633E+002  0.465188E+001  0.420000E+001  0.000000E+000  0.353764E-003  0.738966E-002  0.739813E-002 -0.742904E-003 -0.155183E-001  0.155361E-001
  0.249439E+002  0.474236E+001  0.430000E+001  0.000000E+000 -0.262351E-002 -0.661076E-002  0.711231E-002  0.564055E-002  0.142131E-001  0.152915E-001
  0.244440E+002  0.483322E+001  0.440000E+001  0.000000E+000  0.438166E-002  0.525361E-002  0.684100E-002 -0.963966E-002 -0.115579E-001  0.150502E-001
  0.239625E+002  0.492443E+001  0.450000E+001  0.000000E+000 -0.554208E-002 -0.355317E-002  0.658329E-002  0.124697E-001  0.799464E-002  0.148124E-001
  0.234986E+002  0.501597E+001  0.460000E+001  0.000000E+000  0.609899E-002  0.172532E-002  0.633833E-002 -0.140277E-001 -0.396823E-002  0.145781E-001
  0.230513E+002  0.510784E+001  0.470000E+001  0.000000E+000 -0.610512E-002  0.506612E-004  0.610533E-002  0.143470E-001 -0.119054E-003  0.143475E-001
  0.226199E+002  0.520000E+001  0.480000E+001  0.000000E+000  0.565047E-002 -0.163974E-002  0.588358E-002 -0.135611E-001  0.393536E-002  0.141206E-001
  0.222035E+002  0.529245E+001  0.490000E+001  0.000000E+000 -0.484386E-002  0.295180E-002  0.567240E-002  0.118675E-001 -0.723192E-002  0.138974E-001
  0.218014E+002  0.538516E+001  0.500000E+001  0.000000E+000  0.379847E-002 -0.393769E-002  0.547118E-002 -0.949619E-002  0.984424E-002  0.136780E-001
  0.214130E+002  0.547814E+001  0.510000E+001  0.000000E+000 -0.262131E-002  0.458259E-002  0.527934E-002  0.668434E-002 -0.116856E-001  0.134623E-001
  0.210375E+002  0.557136E+001  0.520000E+001  0.000000E+000  0.140646E-002 -0.489842E-002  0.509634E-002 -0.365680E-002  0.127359E-001  0.132505E-001
  0.206744E+002  0.566480E+001  0.530000E+001  0.000000E+000 -0.231418E-003  0.491623E-002  0.492167E-002  0.613258E-003 -0.130280E-001  0.130424E-001
  0.203231E+002  0.575847E+001  0.540000E+001  0.000000E+000 -0.844237E-003 -0.467933E-002  0.475488E-002  0.227944E-002  0.126342E-001  0.128382E-001
  0.199831E+002  0.585235E+001  0.550000E+001  0.000000E+000  0.177842E-002  0.423745E-002  0.459552E-002 -0.489065E-002 -0.116530E-001  0.126377E-001
  0.196538E+002  0.594643E+001  0.560000E+001  0.000000E+000 -0.254499E-002 -0.364211E-002  0.444319E-002  0.712597E-002  0.101979E-001  0.124409E-001
  0.193348E+002  0.604070E+001  0.570000E+001  0.000000E+000  0.313158E-002  0.294310E-002  0.429751E-002 -0.892499E-002 -0.838784E-002  0.122479E-001
  0.190256E+002  0.613514E+001  0.580000E+001  0.000000E+000 -0.353708E-002 -0.218611E-002  0.415813E-002  0.102575E-001  0.633971E-002  0.120586E-001
  0.187258E+002  0.622977E+001  0.590000E+001  0.000000E+000  0.376919E-002  0.141118E-002  0.402470E-002 -0.111191E-001 -0.416297E-002  0.118729E-001
  0.184349E+002  0.632456E+001  0.600000E+001  0.000000E+000 -0.384200E-002 -0.651935E-003  0.389692E-002  0.115260E-001  0.195581E-002  0.116908E-001
  0.181527E+002  0.641950E+001  0.610000E+001  0.000000E+000  0.377394E-002 -0.646395E-004  0.377449E-002 -0.115105E-001  0.197151E-003  0.115122E-001
  0.178787E+002  0.651460E+001  0.620000E+001  0.000000E+000 -0.358596E-002  0.718031E-003  0.365715E-002  0.111165E-001 -0.222590E-002  0.113371E-001
  0.176126E+002  0.660984E+001  0.630000E+001  0.000000E+000  0.330009E-002 -0.129371E-002  0.354462E-002 -0.103953E-001  0.407520E-002  0.111655E-001
  0.173540E+002  0.670522E+001  0.640000E+001  0.000000E+000 -0.293825E-002  0.178252E-002  0.343667E-002  0.940241E-002 -0.570405E-002  0.109973E-001
  0.171027E+002  0.680074E+001  0.650000E+001  0.000000E+000  0.252140E-002 -0.217988E-002  0.333307E-002 -0.819456E-002  0.708460E-002  0.108325E-001
  0.168584E+002  0.689638E+001  0.660000E+001  0.000000E+000 -0.206894E-002  0.248509E-002  0.323360E-002  0.682749E-002 -0.820080E-002  0.106709E-001
  0.166208E+002  0.699214E+001  0.670000E+001  0.000000E+000  0.159826E-002 -0.270056E-002  0.313806E-002 -0.535415E-002  0.904688E-002  0.105125E-001
  0.163895E+002  0.708802E+001  0.680000E+001  0.000000E+000 -0.112456E-002  0.283110E-002  0.304627E-002  0.382350E-002 -0.962574E-002  0.103573E-001
  0.161645E+002  0.718401E+001  0.690000E+001  0.000000E+000  0.660750E-003 -0.288329E-002  0.295804E-002 -0.227959E-002  0.994737E-002  0.102052E-001
  0.159454E+002  0.728011E+001  0.700000E+001  0.000000E+000 -0.217452E-003  0.286495E-002  0.287319E-002  0.761082E-003 -0.100273E-001  0.100562E-001
  0.157320E+002  0.737631E+001  0.710000E+001  0.000000E+000 -0.196894E-003 -0.278463E-002  0.279158E-002  0.698974E-003  0.988543E-002  0.991011E-002
  0.155241E+002  0.747262E+001  0.720000E+001  0.000000E+000  0.575878E-003  0.265123E-002  0.271305E-002 -0.207316E-002 -0.954442E-002  0.976698E-002
  0.153215E+002  0.756902E+001  0.730000E+001  0.000000E+000 -0.914932E-003 -0.247368E-002  0.263745E-002  0.333950E-002  0.902891E-002  0.962671E-002
  0.151240E+002  0.766551E+001  0.740000E+001  0.000000E+000  0.121113E-002  0.226068E-002  0.256466E-002 -0.448118E-002 -0.836450E-002  0.948925E-002
  0.149314E+002  0.776209E+001  0.750000E+001  0.000000E+000 -0.146297E-002 -0.202051E-002  0.249454E-002  0.548613E-002  0.757692E-002  0.935454E-002
  0.147436E+002  0.785875E+001  0.760000E+001  0.000000E+000  0.167016E-002  0.176091E-002  0.242698E-002 -0.634660E-002 -0.669144E-002  0.922251E-002
  0.145603E+002  0.795550E+001  0.770000E+001  0.000000E+000 -0.183343E-002 -0.148892E-002  0.236185E-002  0.705869E-002  0.573235E-002  0.909312E-002
  0.143814E+002  0.805233E+001  0.780000E+001  0.000000E+000  0.195431E-002  0.121091E-002  0.229905E-002 -0.762182E-002 -0.472256E-002  0.896631E-002
  0.142068E+002  0.814923E+001  0.790000E+001  0.000000E+000 -0.203501E-002 -0.932486E-003  0.223849E-002  0.803831E-002  0.368332E-002  0.884202E-002
  0.140362E+002  0.824621E+001  0.800000E+001  0.000000E+000  0.207821E-002  0.658512E-003  0.218005E-002 -0.831285E-002 -0.263405E-002  0.872019E-002
  0.138697E+002  0.834326E+001  0.810000E+001  0.000000E+000 -0.208694E-002 -0.393131E-003  0.212365E-002  0.845211E-002  0.159218E-002  0.860077E-002
  0.137070E+002  0.844038E+001  0.820000E+001  0.000000E+000  0.206447E-002  0.139785E-003  0.206920E-002 -0.846432E-002 -0.573119E-003  0.848370E-002
  0.135479E+002  0.853756E+001  0.830000E+001  0.000000E+000 -0.201419E-002  0.987345E-004  0.201661E-002  0.835890E-002 -0.409748E-003  0.836894E-002
  0.133925E+002  0.863481E+001  0.840000E+001  0.000000E+000  0.193956E-002 -0.320245E-003  0.196582E-002 -0.814614E-002  0.134503E-002  0.825643E-002
  0.132405E+002  0.873212E+001  0.850000E+001  0.000000E+000 -0.184397E-002  0.523118E-003  0.191673E-002  0.783687E-002 -0.222325E-002  0.814612E-002
  0.130919E+002  0.882950E+001  0.860000E+001  0.000000E+000  0.173075E-002 -0.706221E-003  0.186929E-002 -0.744225E-002  0.303675E-002  0.803797E-002
  0.129465E+002  0.892693E+001  0.870000E+001  0.000000E+000 -0.160311E-002  0.868868E-003  0.182343E-002  0.697352E-002 -0.377958E-002  0.793191E-002
  0.128043E+002  0.902441E+001  0.880000E+001  0.000000E+000  0.146405E-002 -0.101076E-002  0.177907E-002 -0.644183E-002  0.444735E-002  0.782791E-002
  0.126651E+002  0.912195E+001  0.890000E+001  0.000000E+000 -0.131642E-002  0.113194E-002  0.173616E-002  0.585808E-002 -0.503712E-002  0.772591E-002
  0.125288E+002  0.921954E+001  0.900000E+001  0.000000E+000  0.116284E-002 -0.123272E-002  0.169464E-002 -0.523277E-002  0.554726E-002  0.762588E-002
  0.123954E+002  0.931719E+001  0.910000E+001  0.000000E+000 -0.100570E-002  0.131369E-002  0.165445E-002  0.457594E-002 -0.597729E-002  0.752776E-002
  0.122648E+002  0.941488E+001  0.920000E+001  0.000000E+000  0.847181E-003 -0.137560E-002  0.161555E-002 -0.389703E-002  0.632776E-002  0.743151E-002
  0.121368E+002  0.951262E+001  0.930000E+001  0.000000E+000 -0.689228E-003  0.141938E-002  0.157787E-002  0.320491E-002 -0.660012E-002  0.733710E-002
  0.120115E+002  0.961041E+001  0.940000E+001  0.000000E+000  0.533563E-003 -0.144608E-002  0.154138E-002 -0.250775E-002  0.679658E-002  0.724447E-002
  0.118887E+002  0.970824E+001  0.950000E+001  0.000000E+000 -0.381693E-003  0.145685E-002  0.150602E-002  0.181304E-002 -0.692002E-002  0.715358E-002
  0.117683E+002  0.980612E+001  0.960000E+001  0.000000E+000  0.234915E-003 -0.145288E-002  0.147175E-002 -0.112759E-002  0.697384E-002  0.706441E-002
  0.116503E+002  0.990404E+001  0.970000E+001  0.000000E+000 -0.943288E-004  0.143544E-002  0.143854E-002  0.457495E-003 -0.696188E-002  0.697690E-002
  0.115346E+002  0.100020E+002  0.980000E+001  0.000000E+000 -0.391507E-004 -0.140579E-002  0.140633E-002  0.191839E-003  0.688835E-002  0.689102E-002
  0.114212E+002  0.101000E+002  0.990000E+001  0.000000E+000  0.164783E-003  0.136519E-002  0.137510E-002 -0.815676E-003 -0.675768E-002  0.680673E-002
  0.113099E+002  0.101980E+002  0.100000E+002  0.000000E+000 -0.281987E-003 -0.131490E-002  0.134480E-002  0.140993E-002  0.657451E-002  0.672400E-002
  0.112008E+002  0.102961E+002  0.101000E+002  0.000000E+000  0.390328E-003  0.125616E-002  0.131540E-002 -0.197115E-002 -0.634359E-002  0.664278E-002
  0.110937E+002  0.103942E+002  0.102000E+002  0.000000E+000 -0.489505E-003 -0.119014E-002  0.128687E-002  0.249647E-002  0.606970E-002  0.656305E-002
  0.109887E+002  0.104924E+002  0.103000E+002  0.000000E+000  0.579337E-003  0.111799E-002  0.125918E-002 -0.298358E-002 -0.575765E-002  0.648478E-002
  0.108855E+002  0.105906E+002  0.104000E+002  0.000000E+000 -0.659751E-003 -0.104080E-002  0.123229E-002  0.343070E-002  0.541218E-002  0.640792E-002
  0.107843E+002  0.106888E+002  0.105000E+002  0.000000E+000  0.730769E-003  0.959607E-003  0.120618E-002 -0.383654E-002 -0.503794E-002  0.633244E-002
  0.106849E+002  0.107870E+002  0.106000E+002  0.000000E+000 -0.792497E-003 -0.875371E-003  0.118082E-002  0.420023E-002  0.463947E-002  0.625833E-002
  0.105873E+002  0.108853E+002  0.107000E+002  0.000000E+000  0.845115E-003  0.788999E-003  0.115617E-002 -0.452136E-002 -0.422114E-002  0.618553E-002
  0.104915E+002  0.109836E+002  0.108000E+002  0.000000E+000 -0.888864E-003 -0.701328E-003  0.113223E-002  0.479987E-002  0.378717E-002  0.611403E-002
  0.103973E+002  0.110820E+002  0.109000E+002  0.000000E+000  0.924039E-003  0.613131E-003  0.110895E-002 -0.503601E-002 -0.334156E-002  0.604380E-002
  0.103048E+002  0.111803E+002  0.110000E+002  0.000000E+000 -0.950981E-003 -0.525112E-003  0.108633E-002  0.523039E-002  0.288812E-002  0.597480E-002
  0.102140E+002  0.112787E+002  0.111000E+002  0.000000E+000  0.970064E-003  0.437912E-003  0.106433E-002 -0.538386E-002 -0.243041E-002  0.590701E-002
  0.101247E+002  0.113772E+002  0.112000E+002  0.000000E+000 -0.981695E-003 -0.352107E-003  0.104293E-002  0.549749E-002  0.197180E-002  0.584041E-002
  0.100369E+002  0.114756E+002  0.113000E+002  0.000000E+000  0.986299E-003  0.268211E-003  0.102212E-002 -0.557259E-002 -0.151539E-002  0.577496E-002
  0.995063E+001  0.115741E+002  0.114000E+002  0.000000E+000 -0.984321E-003 -0.186679E-003  0.100187E-002  0.561063E-002  0.106407E-002  0.571064E-002
  0.986581E+001  0.116726E+002  0.115000E+002  0.000000E+000  0.976216E-003  0.107909E-003  0.982161E-003 -0.561324E-002 -0.620476E-003  0.564743E-002
  0.978241E+001  0.117712E+002  0.116000E+002  0.000000E+000 -0.962442E-003 -0.322453E-004  0.962982E-003  0.558216E-002  0.187022E-003  0.558530E-002
  0.970039E+001  0.118697E+002  0.117000E+002  0.000000E+000  0.943463E-003 -0.400199E-004  0.944312E-003 -0.551926E-002  0.234116E-003  0.552422E-002
  0.961973E+001  0.119683E+002  0.118000E+002  0.000000E+000 -0.919738E-003  0.108642E-003  0.926133E-003  0.542646E-002 -0.640989E-003  0.546418E-002
  0.954038E+001  0.120669E+002  0.119000E+002  0.000000E+000  0.891722E-003 -0.173423E-003  0.908429E-003 -0.530575E-002  0.103187E-002  0.540516E-002
  0.946232E+001  0.121655E+002  0.120000E+002  0.000000E+000 -0.859861E-003  0.234205E-003  0.891186E-003  0.515917E-002 -0.140523E-002  0.534712E-002
  0.938552E+001  0.122642E+002  0.121000E+002  0.000000E+000  0.824590E-003 -0.290870E-003  0.874388E-003 -0.498877E-002  0.175976E-002  0.529005E-002
  0.930994E+001  0.123628E+002  0.122000E+002  0.000000E+000 -0.786333E-003  0.343336E-003  0.858021E-003  0.479663E-002 -0.209435E-002  0.523393E-002
  0.923556E+001  0.124615E+002  0.123000E+002  0.000000E+000  0.745497E-003 -0.391556E-003  0.842070E-003 -0.458481E-002  0.240807E-002  0.517873E-002
  0.916235E+001  0.125603E+002  0.124000E+002  0.000000E+000 -0.702476E-003  0.435509E-003  0.826523E-003  0.435535E-002 -0.270016E-002  0.512444E-002
  0.909028E+001  0.126590E+002  0.125000E+002  0.000000E+000  0.657644E-003 -0.475207E-003  0.811367E-003 -0.411027E-002  0.297004E-002  0.507104E-002
  0.901932E+001  0.127577E+002  0.126000E+002  0.000000E+000 -0.611359E-003  0.510681E-003  0.796590E-003  0.385156E-002 -0.321729E-002  0.501851E-002
  0.894946E+001  0.128565E+002  0.127000E+002  0.000000E+000  0.563960E-003 -0.541989E-003  0.782179E-003 -0.358115E-002  0.344163E-002  0.496683E-002
  0.888066E+001  0.129553E+002  0.128000E+002  0.000000E+000 -0.515768E-003  0.569207E-003  0.768123E-003  0.330091E-002 -0.364293E-002  0.491599E-002
  0.881290E+001  0.130541E+002  0.129000E+002  0.000000E+000  0.467082E-003 -0.592428E-003  0.754412E-003 -0.301268E-002  0.382116E-002  0.486596E-002
  0.874616E+001  0.131529E+002  0.130000E+002  0.000000E+000 -0.418186E-003  0.611762E-003  0.741034E-003  0.271821E-002 -0.397645E-002  0.481672E-002
  0.868042E+001  0.132518E+002  0.131000E+002  0.000000E+000  0.369340E-003 -0.627330E-003  0.727980E-003 -0.241918E-002  0.410901E-002  0.476827E-002
  0.861565E+001  0.133507E+002  0.132000E+002  0.000000E+000 -0.320788E-003  0.639267E-003  0.715240E-003  0.211720E-002 -0.421917E-002  0.472058E-002
  0.855183E+001  0.134495E+002  0.133000E+002  0.000000E+000  0.272755E-003 -0.647717E-003  0.702804E-003 -0.181382E-002  0.430732E-002  0.467365E-002
  0.848894E+001  0.135484E+002  0.134000E+002  0.000000E+000 -0.225446E-003  0.652832E-003  0.690663E-003  0.151049E-002 -0.437397E-002  0.462744E-002
  0.842697E+001  0.136473E+002  0.135000E+002  0.000000E+000  0.179049E-003 -0.654769E-003  0.678809E-003 -0.120858E-002  0.441969E-002  0.458196E-002
  0.836589E+001  0.137463E+002  0.136000E+002  0.000000E+000 -0.133734E-003  0.653692E-003  0.667232E-003  0.909394E-003 -0.444511E-002  0.453718E-002
  0.830568E+001  0.138452E+002  0.137000E+002  0.000000E+000  0.896551E-004 -0.649769E-003  0.655925E-003 -0.614137E-003  0.445092E-002  0.449309E-002
  0.824632E+001  0.139442E+002  0.138000E+002  0.000000E+000 -0.469480E-004  0.643169E-003  0.644880E-003  0.323941E-003 -0.443787E-002  0.444967E-002
  0.818780E+001  0.140431E+002  0.139000E+002  0.000000E+000  0.573421E-005 -0.634063E-003  0.634089E-003 -0.398528E-004  0.440674E-002  0.440692E-002
  0.813010E+001  0.141421E+002  0.140000E+002  0.000000E+000  0.338802E-004  0.622624E-003  0.623545E-003 -0.237161E-003 -0.435837E-002  0.436482E-002
